XCOM: Silicon
Constituents (Atomic Number : Fraction by Weight)

    Z=14 : 1.000000

       PHOTON      SCATTERING      PHOTO-    PAIR PRODUCTION  TOTAL ATTENUATION
       ENERGY   COHERENT INCOHER. ELECTRIC    IN       IN       WITH   WITHOUT
                                 ABSORPTION NUCLEAR ELECTRON  COHERENT COHERENT
                                             FIELD    FIELD    SCATT.   SCATT.
         (MeV)    (cm2/g)   (cm2/g)   (cm2/g)   (cm2/g)   (cm2/g)   (cm2/g)   (cm2/g)

       1.000E-03 2.528E+00 1.317E-02 1.567E+03 0.000E+00 0.000E+00 1.570E+03 1.567E+03
       1.072E-03 2.491E+00 1.466E-02 1.302E+03 0.000E+00 0.000E+00 1.304E+03 1.302E+03
       1.150E-03 2.453E+00 1.631E-02 1.081E+03 0.000E+00 0.000E+00 1.084E+03 1.081E+03
       1.233E-03 2.413E+00 1.812E-02 8.985E+02 0.000E+00 0.000E+00 9.009E+02 8.985E+02
       1.322E-03 2.371E+00 2.007E-02 7.463E+02 0.000E+00 0.000E+00 7.487E+02 7.463E+02
       1.417E-03 2.326E+00 2.216E-02 6.198E+02 0.000E+00 0.000E+00 6.222E+02 6.199E+02
       1.500E-03 2.286E+00 2.393E-02 5.333E+02 0.000E+00 0.000E+00 5.356E+02 5.333E+02
       1.520E-03 2.276E+00 2.435E-02 5.146E+02 0.000E+00 0.000E+00 5.169E+02 5.146E+02
       1.630E-03 2.222E+00 2.664E-02 4.259E+02 0.000E+00 0.000E+00 4.281E+02 4.259E+02
       1.747E-03 2.164E+00 2.902E-02 3.525E+02 0.000E+00 0.000E+00 3.547E+02 3.526E+02
       1.839E-03 2.121E+00 3.081E-02 3.071E+02 0.000E+00 0.000E+00 3.092E+02 3.071E+02
       # 14 K
       1.874E-03 2.105E+00 3.149E-02 3.097E+03 0.000E+00 0.000E+00 3.099E+03 3.097E+03
       2.000E-03 2.048E+00 3.388E-02 2.775E+03 0.000E+00 0.000E+00 2.777E+03 2.775E+03
       2.009E-03 2.044E+00 3.405E-02 2.751E+03 0.000E+00 0.000E+00 2.753E+03 2.751E+03
       2.154E-03 1.981E+00 3.667E-02 2.382E+03 0.000E+00 0.000E+00 2.384E+03 2.382E+03
       2.310E-03 1.917E+00 3.934E-02 2.015E+03 0.000E+00 0.000E+00 2.017E+03 2.015E+03
       2.477E-03 1.851E+00 4.205E-02 1.676E+03 0.000E+00 0.000E+00 1.678E+03 1.676E+03
       2.656E-03 1.784E+00 4.478E-02 1.379E+03 0.000E+00 0.000E+00 1.381E+03 1.379E+03
       2.848E-03 1.718E+00 4.754E-02 1.131E+03 0.000E+00 0.000E+00 1.133E+03 1.131E+03
       3.000E-03 1.669E+00 4.962E-02 9.767E+02 0.000E+00 0.000E+00 9.784E+02 9.767E+02
       3.054E-03 1.652E+00 5.033E-02 9.296E+02 0.000E+00 0.000E+00 9.313E+02 9.296E+02
       3.275E-03 1.587E+00 5.313E-02 7.689E+02 0.000E+00 0.000E+00 7.705E+02 7.689E+02
       3.511E-03 1.522E+00 5.596E-02 6.384E+02 0.000E+00 0.000E+00 6.399E+02 6.384E+02
       3.765E-03 1.459E+00 5.882E-02 5.306E+02 0.000E+00 0.000E+00 5.321E+02 5.307E+02
       4.000E-03 1.404E+00 6.135E-02 4.514E+02 0.000E+00 0.000E+00 4.528E+02 4.514E+02
       4.037E-03 1.396E+00 6.173E-02 4.403E+02 0.000E+00 0.000E+00 4.417E+02 4.404E+02
       4.329E-03 1.334E+00 6.471E-02 3.640E+02 0.000E+00 0.000E+00 3.654E+02 3.641E+02
       4.642E-03 1.273E+00 6.775E-02 3.001E+02 0.000E+00 0.000E+00 3.014E+02 3.002E+02
       4.977E-03 1.212E+00 7.089E-02 2.470E+02 0.000E+00 0.000E+00 2.482E+02 2.470E+02
       5.000E-03 1.208E+00 7.110E-02 2.438E+02 0.000E+00 0.000E+00 2.451E+02 2.439E+02
       5.337E-03 1.152E+00 7.413E-02 2.030E+02 0.000E+00 0.000E+00 2.043E+02 2.031E+02
       5.722E-03 1.092E+00 7.749E-02 1.668E+02 0.000E+00 0.000E+00 1.680E+02 1.669E+02
       6.000E-03 1.051E+00 7.983E-02 1.458E+02 0.000E+00 0.000E+00 1.470E+02 1.459E+02
       6.136E-03 1.032E+00 8.095E-02 1.369E+02 0.000E+00 0.000E+00 1.380E+02 1.369E+02
       6.579E-03 9.715E-01 8.453E-02 1.122E+02 0.000E+00 0.000E+00 1.132E+02 1.122E+02
       7.055E-03 9.113E-01 8.822E-02 9.179E+01 0.000E+00 0.000E+00 9.279E+01 9.188E+01
       7.565E-03 8.514E-01 9.199E-02 7.504E+01 0.000E+00 0.000E+00 7.599E+01 7.513E+01
       8.000E-03 8.039E-01 9.507E-02 6.379E+01 0.000E+00 0.000E+00 6.469E+01 6.389E+01
       8.111E-03 7.922E-01 9.584E-02 6.128E+01 0.000E+00 0.000E+00 6.216E+01 6.137E+01
       8.698E-03 7.339E-01 9.975E-02 4.998E+01 0.000E+00 0.000E+00 5.081E+01 5.008E+01
       9.326E-03 6.771E-01 1.037E-01 4.072E+01 0.000E+00 0.000E+00 4.150E+01 4.083E+01
       1.000E-02 6.223E-01 1.076E-01 3.315E+01 0.000E+00 0.000E+00 3.388E+01 3.326E+01
       1.072E-02 5.697E-01 1.115E-01 2.696E+01 0.000E+00 0.000E+00 2.764E+01 2.707E+01
       1.150E-02 5.199E-01 1.154E-01 2.190E+01 0.000E+00 0.000E+00 2.254E+01 2.202E+01
       1.233E-02 4.731E-01 1.191E-01 1.779E+01 0.000E+00 0.000E+00 1.838E+01 1.790E+01
       1.322E-02 4.294E-01 1.227E-01 1.442E+01 0.000E+00 0.000E+00 1.498E+01 1.455E+01
       1.418E-02 3.889E-01 1.262E-01 1.169E+01 0.000E+00 0.000E+00 1.220E+01 1.181E+01
       1.500E-02 3.585E-01 1.289E-01 9.848E+00 0.000E+00 0.000E+00 1.034E+01 9.977E+00
       1.520E-02 3.517E-01 1.295E-01 9.463E+00 0.000E+00 0.000E+00 9.944E+00 9.592E+00
       1.630E-02 3.176E-01 1.325E-01 7.653E+00 0.000E+00 0.000E+00 8.103E+00 7.786E+00
       1.747E-02 2.865E-01 1.353E-01 6.186E+00 0.000E+00 0.000E+00 6.608E+00 6.322E+00
       1.874E-02 2.582E-01 1.379E-01 4.996E+00 0.000E+00 0.000E+00 5.392E+00 5.134E+00
       2.000E-02 2.341E-01 1.402E-01 4.089E+00 0.000E+00 0.000E+00 4.463E+00 4.229E+00
       2.009E-02 2.325E-01 1.403E-01 4.032E+00 0.000E+00 0.000E+00 4.405E+00 4.172E+00
       2.154E-02 2.093E-01 1.425E-01 3.251E+00 0.000E+00 0.000E+00 3.603E+00 3.394E+00
       2.310E-02 1.882E-01 1.445E-01 2.620E+00 0.000E+00 0.000E+00 2.953E+00 2.765E+00
       2.477E-02 1.691E-01 1.463E-01 2.110E+00 0.000E+00 0.000E+00 2.425E+00 2.256E+00
       2.656E-02 1.518E-01 1.478E-01 1.698E+00 0.000E+00 0.000E+00 1.998E+00 1.846E+00
       2.848E-02 1.362E-01 1.492E-01 1.366E+00 0.000E+00 0.000E+00 1.651E+00 1.515E+00
       3.000E-02 1.255E-01 1.501E-01 1.161E+00 0.000E+00 0.000E+00 1.436E+00 1.311E+00
       3.054E-02 1.220E-01 1.504E-01 1.098E+00 0.000E+00 0.000E+00 1.370E+00 1.248E+00
       3.274E-02 1.092E-01 1.515E-01 8.817E-01 0.000E+00 0.000E+00 1.142E+00 1.033E+00
       3.511E-02 9.763E-02 1.523E-01 7.077E-01 0.000E+00 0.000E+00 9.576E-01 8.600E-01
       3.765E-02 8.715E-02 1.530E-01 5.677E-01 0.000E+00 0.000E+00 8.079E-01 7.207E-01
       4.000E-02 7.886E-02 1.534E-01 4.687E-01 0.000E+00 0.000E+00 7.010E-01 6.221E-01
       4.037E-02 7.767E-02 1.535E-01 4.553E-01 0.000E+00 0.000E+00 6.864E-01 6.087E-01
       4.329E-02 6.910E-02 1.538E-01 3.649E-01 0.000E+00 0.000E+00 5.878E-01 5.187E-01
       4.642E-02 6.137E-02 1.539E-01 2.924E-01 0.000E+00 0.000E+00 5.076E-01 4.462E-01
       4.977E-02 5.442E-02 1.538E-01 2.341E-01 0.000E+00 0.000E+00 4.424E-01 3.879E-01
       5.000E-02 5.399E-02 1.538E-01 2.307E-01 0.000E+00 0.000E+00 4.385E-01 3.845E-01
       5.337E-02 4.819E-02 1.535E-01 1.874E-01 0.000E+00 0.000E+00 3.891E-01 3.409E-01
       5.722E-02 4.262E-02 1.530E-01 1.499E-01 0.000E+00 0.000E+00 3.456E-01 3.030E-01
       6.000E-02 3.917E-02 1.526E-01 1.288E-01 0.000E+00 0.000E+00 3.206E-01 2.815E-01
       6.136E-02 3.764E-02 1.524E-01 1.199E-01 0.000E+00 0.000E+00 3.100E-01 2.723E-01
       6.579E-02 3.320E-02 1.516E-01 9.591E-02 0.000E+00 0.000E+00 2.807E-01 2.475E-01
       7.055E-02 2.926E-02 1.506E-01 7.668E-02 0.000E+00 0.000E+00 2.565E-01 2.272E-01
       7.565E-02 2.576E-02 1.494E-01 6.129E-02 0.000E+00 0.000E+00 2.364E-01 2.107E-01
       8.000E-02 2.324E-02 1.483E-01 5.120E-02 0.000E+00 0.000E+00 2.228E-01 1.995E-01
       8.111E-02 2.266E-02 1.481E-01 4.898E-02 0.000E+00 0.000E+00 2.197E-01 1.970E-01
       8.697E-02 1.992E-02 1.466E-01 3.914E-02 0.000E+00 0.000E+00 2.056E-01 1.857E-01
       9.326E-02 1.750E-02 1.449E-01 3.127E-02 0.000E+00 0.000E+00 1.937E-01 1.762E-01
       1.000E-01 1.537E-02 1.432E-01 2.498E-02 0.000E+00 0.000E+00 1.835E-01 1.682E-01
       1.072E-01 1.348E-02 1.413E-01 1.996E-02 0.000E+00 0.000E+00 1.748E-01 1.613E-01
       1.150E-01 1.182E-02 1.393E-01 1.595E-02 0.000E+00 0.000E+00 1.671E-01 1.553E-01
       1.233E-01 1.036E-02 1.372E-01 1.275E-02 0.000E+00 0.000E+00 1.604E-01 1.500E-01
       1.322E-01 9.074E-03 1.351E-01 1.019E-02 0.000E+00 0.000E+00 1.543E-01 1.453E-01
       1.417E-01 7.941E-03 1.328E-01 8.154E-03 0.000E+00 0.000E+00 1.489E-01 1.409E-01
       1.500E-01 7.125E-03 1.309E-01 6.806E-03 0.000E+00 0.000E+00 1.448E-01 1.377E-01
       1.520E-01 6.947E-03 1.305E-01 6.526E-03 0.000E+00 0.000E+00 1.439E-01 1.370E-01
       1.630E-01 6.074E-03 1.281E-01 5.225E-03 0.000E+00 0.000E+00 1.394E-01 1.333E-01
       1.747E-01 5.308E-03 1.256E-01 4.187E-03 0.000E+00 0.000E+00 1.351E-01 1.298E-01
       1.874E-01 4.637E-03 1.231E-01 3.358E-03 0.000E+00 0.000E+00 1.311E-01 1.265E-01
       2.000E-01 4.085E-03 1.207E-01 2.736E-03 0.000E+00 0.000E+00 1.275E-01 1.235E-01
       2.009E-01 4.048E-03 1.206E-01 2.697E-03 0.000E+00 0.000E+00 1.273E-01 1.232E-01
       2.154E-01 3.533E-03 1.180E-01 2.168E-03 0.000E+00 0.000E+00 1.237E-01 1.201E-01
       2.310E-01 3.082E-03 1.154E-01 1.746E-03 0.000E+00 0.000E+00 1.202E-01 1.171E-01
       2.477E-01 2.688E-03 1.128E-01 1.408E-03 0.000E+00 0.000E+00 1.169E-01 1.142E-01
       2.656E-01 2.344E-03 1.101E-01 1.138E-03 0.000E+00 0.000E+00 1.136E-01 1.113E-01
       2.848E-01 2.043E-03 1.075E-01 9.213E-04 0.000E+00 0.000E+00 1.105E-01 1.084E-01
       3.000E-01 1.844E-03 1.055E-01 7.882E-04 0.000E+00 0.000E+00 1.082E-01 1.063E-01
       3.054E-01 1.780E-03 1.049E-01 7.474E-04 0.000E+00 0.000E+00 1.074E-01 1.056E-01
       3.274E-01 1.551E-03 1.022E-01 6.078E-04 0.000E+00 0.000E+00 1.044E-01 1.028E-01
       3.511E-01 1.351E-03 9.961E-02 4.955E-04 0.000E+00 0.000E+00 1.015E-01 1.001E-01
       3.765E-01 1.177E-03 9.700E-02 4.051E-04 0.000E+00 0.000E+00 9.858E-02 9.741E-02
       4.000E-01 1.043E-03 9.475E-02 3.409E-04 0.000E+00 0.000E+00 9.614E-02 9.509E-02
       4.037E-01 1.024E-03 9.441E-02 3.322E-04 0.000E+00 0.000E+00 9.577E-02 9.474E-02
       4.329E-01 8.919E-04 9.185E-02 2.733E-04 0.000E+00 0.000E+00 9.301E-02 9.212E-02
       4.642E-01 7.764E-04 8.931E-02 2.257E-04 0.000E+00 0.000E+00 9.031E-02 8.953E-02
       4.977E-01 6.758E-04 8.679E-02 1.872E-04 0.000E+00 0.000E+00 8.765E-02 8.698E-02
       5.000E-01 6.696E-04 8.663E-02 1.849E-04 0.000E+00 0.000E+00 8.748E-02 8.681E-02
       5.337E-01 5.881E-04 8.430E-02 1.560E-04 0.000E+00 0.000E+00 8.505E-02 8.446E-02
       5.722E-01 5.118E-04 8.184E-02 1.304E-04 0.000E+00 0.000E+00 8.249E-02 8.197E-02
       6.000E-01 4.657E-04 8.019E-02 1.156E-04 0.000E+00 0.000E+00 8.078E-02 8.031E-02
       6.136E-01 4.454E-04 7.942E-02 1.093E-04 0.000E+00 0.000E+00 7.997E-02 7.953E-02
       6.579E-01 3.876E-04 7.703E-02 9.173E-05 0.000E+00 0.000E+00 7.751E-02 7.712E-02
       7.055E-01 3.373E-04 7.467E-02 7.743E-05 0.000E+00 0.000E+00 7.508E-02 7.475E-02
       7.565E-01 2.935E-04 7.234E-02 6.596E-05 0.000E+00 0.000E+00 7.270E-02 7.241E-02
       8.000E-01 2.625E-04 7.050E-02 5.854E-05 0.000E+00 0.000E+00 7.082E-02 7.056E-02
       8.111E-01 2.553E-04 7.005E-02 5.692E-05 0.000E+00 0.000E+00 7.036E-02 7.011E-02
       8.697E-01 2.221E-04 6.779E-02 4.962E-05 0.000E+00 0.000E+00 6.806E-02 6.784E-02
       9.326E-01 1.932E-04 6.557E-02 4.301E-05 0.000E+00 0.000E+00 6.581E-02 6.561E-02
       1.000E+00 1.680E-04 6.340E-02 3.639E-05 0.000E+00 0.000E+00 6.361E-02 6.344E-02
       1.022E+00 1.609E-04 6.274E-02 3.433E-05 0.000E+00 0.000E+00 6.293E-02 6.277E-02
       1.250E+00 1.076E-04 5.671E-02 2.326E-05 3.521E-05 0.000E+00 5.688E-02 5.677E-02
       1.500E+00 7.475E-05 5.155E-02 1.684E-05 1.912E-04 0.000E+00 5.183E-02 5.175E-02
       2.000E+00 4.205E-05 4.400E-02 1.050E-05 7.533E-04 0.000E+00 4.481E-02 4.476E-02
       2.044E+00 4.027E-05 4.346E-02 1.016E-05 8.118E-04 0.000E+00 4.433E-02 4.429E-02
       3.000E+00 1.869E-05 3.461E-02 5.800E-06 2.139E-03 1.211E-05 3.678E-02 3.677E-02
       4.000E+00 1.052E-05 2.888E-02 3.952E-06 3.456E-03 4.945E-05 3.240E-02 3.239E-02
       5.000E+00 6.731E-06 2.494E-02 2.983E-06 4.629E-03 9.853E-05 2.967E-02 2.967E-02
       6.000E+00 4.674E-06 2.204E-02 2.389E-06 5.678E-03 1.513E-04 2.788E-02 2.787E-02
       7.000E+00 3.435E-06 1.981E-02 1.990E-06 6.611E-03 2.040E-04 2.663E-02 2.663E-02
       8.000E+00 2.629E-06 1.803E-02 1.705E-06 7.451E-03 2.552E-04 2.574E-02 2.574E-02
       9.000E+00 2.077E-06 1.657E-02 1.490E-06 8.212E-03 3.043E-04 2.509E-02 2.509E-02
       1.000E+01 1.683E-06 1.536E-02 1.323E-06 8.905E-03 3.510E-04 2.462E-02 2.461E-02
       1.100E+01 1.391E-06 1.432E-02 1.189E-06 9.531E-03 3.952E-04 2.425E-02 2.425E-02
       1.200E+01 1.169E-06 1.343E-02 1.080E-06 1.011E-02 4.370E-04 2.398E-02 2.398E-02
       1.300E+01 9.958E-07 1.266E-02 9.889E-07 1.064E-02 4.767E-04 2.378E-02 2.377E-02
       1.400E+01 8.585E-07 1.197E-02 9.121E-07 1.114E-02 5.144E-04 2.362E-02 2.362E-02
       1.500E+01 7.479E-07 1.137E-02 8.463E-07 1.160E-02 5.502E-04 2.352E-02 2.352E-02
       1.600E+01 6.572E-07 1.082E-02 7.893E-07 1.204E-02 5.843E-04 2.345E-02 2.345E-02
       1.800E+01 5.193E-07 9.893E-03 6.954E-07 1.284E-02 6.476E-04 2.338E-02 2.338E-02
       2.000E+01 4.207E-07 9.124E-03 6.216E-07 1.355E-02 7.054E-04 2.338E-02 2.338E-02
       2.200E+01 3.476E-07 8.474E-03 5.618E-07 1.419E-02 7.588E-04 2.343E-02 2.343E-02
       2.400E+01 2.920E-07 7.919E-03 5.125E-07 1.478E-02 8.079E-04 2.351E-02 2.351E-02
       2.600E+01 2.489E-07 7.436E-03 4.711E-07 1.532E-02 8.536E-04 2.361E-02 2.361E-02
       2.800E+01 2.146E-07 7.014E-03 4.359E-07 1.581E-02 8.961E-04 2.372E-02 2.372E-02
       3.000E+01 1.870E-07 6.641E-03 4.057E-07 1.627E-02 9.357E-04 2.385E-02 2.385E-02
       4.000E+01 1.052E-07 5.277E-03 3.010E-07 1.817E-02 1.102E-03 2.455E-02 2.455E-02
       5.000E+01 6.731E-08 4.406E-03 2.393E-07 1.958E-02 1.231E-03 2.522E-02 2.522E-02
       6.000E+01 4.674E-08 3.795E-03 1.985E-07 2.070E-02 1.334E-03 2.583E-02 2.583E-02
       8.000E+01 2.629E-08 2.993E-03 1.481E-07 2.236E-02 1.493E-03 2.685E-02 2.685E-02
       1.000E+02 1.683E-08 2.485E-03 1.181E-07 2.354E-02 1.611E-03 2.764E-02 2.764E-02
       1.500E+02 7.477E-09 1.769E-03 7.837E-08 2.547E-02 1.810E-03 2.905E-02 2.905E-02
       2.000E+02 4.207E-09 1.387E-03 5.864E-08 2.663E-02 1.939E-03 2.996E-02 2.996E-02
       3.000E+02 1.869E-09 9.833E-04 3.902E-08 2.802E-02 2.102E-03 3.111E-02 3.111E-02
       4.000E+02 1.052E-09 7.700E-04 2.923E-08 2.884E-02 2.202E-03 3.181E-02 3.181E-02
       5.000E+02 6.731E-10 6.375E-04 2.337E-08 2.938E-02 2.273E-03 3.229E-02 3.229E-02
       6.000E+02 4.674E-10 5.457E-04 1.947E-08 2.976E-02 2.326E-03 3.263E-02 3.263E-02
       8.000E+02 2.629E-10 4.263E-04 1.459E-08 3.030E-02 2.399E-03 3.312E-02 3.312E-02
       1.000E+03 1.683E-10 3.508E-04 1.167E-08 3.064E-02 2.449E-03 3.344E-02 3.344E-02
       1.500E+03 7.477E-11 2.449E-04 7.775E-09 3.113E-02 2.524E-03 3.390E-02 3.390E-02
       2.000E+03 4.207E-11 1.895E-04 5.830E-09 3.139E-02 2.567E-03 3.415E-02 3.415E-02
       3.000E+03 1.869E-11 1.318E-04 3.885E-09 3.169E-02 2.614E-03 3.444E-02 3.444E-02
       4.000E+03 1.052E-11 1.017E-04 2.914E-09 3.186E-02 2.642E-03 3.461E-02 3.461E-02
       5.000E+03 6.731E-12 8.317E-05 2.331E-09 3.195E-02 2.659E-03 3.469E-02 3.469E-02
       6.000E+03 4.674E-12 7.054E-05 1.943E-09 3.203E-02 2.672E-03 3.478E-02 3.478E-02
       8.000E+03 2.629E-12 5.433E-05 1.457E-09 3.212E-02 2.687E-03 3.486E-02 3.486E-02
       1.000E+04 1.683E-12 4.436E-05 1.166E-09 3.218E-02 2.697E-03 3.493E-02 3.493E-02
       1.500E+04 7.477E-13 3.066E-05 7.771E-10 3.225E-02 2.712E-03 3.499E-02 3.499E-02
       2.000E+04 4.207E-13 2.356E-05 5.828E-10 3.229E-02 2.719E-03 3.503E-02 3.503E-02
       3.000E+04 1.869E-13 1.626E-05 3.885E-10 3.236E-02 2.727E-03 3.510E-02 3.510E-02
       4.000E+04 1.052E-13 1.248E-05 2.914E-10 3.238E-02 2.734E-03 3.512E-02 3.512E-02
       5.000E+04 6.731E-14 1.016E-05 2.331E-10 3.238E-02 2.736E-03 3.512E-02 3.512E-02
       6.000E+04 4.674E-14 8.592E-06 1.942E-10 3.240E-02 2.738E-03 3.515E-02 3.515E-02
       8.000E+04 2.629E-14 6.587E-06 1.457E-10 3.240E-02 2.740E-03 3.515E-02 3.515E-02
       1.000E+05 1.683E-14 5.361E-06 1.165E-10 3.242E-02 2.742E-03 3.517E-02 3.517E-02